#>>>>>>>>>>>>>>>>>>>>>>>>>>>>>>>>>>>>>>>>>>>>>>>>>>>>>>>>>>>>
# [SECTION REPORT EMERGING UPBOUND PARTICLES DISTRIBUTION]
# Units are particles/(eV history)
# Energy window (eV), energy bins:
#  1.00000E+05  3.50000E+07   100
#
# Energy (eV) :     e-     : +-2sigma :   photons  : +-2sigma :     e+     : +-2sigma :
   2.74500E+05  8.60368E-09  4.125E-11  5.89324E-07  3.931E-10  5.16523E-10  9.932E-12
   6.23500E+05  6.94599E-09  3.681E-11  2.59267E-07  2.347E-10  9.96657E-10  1.380E-11
   9.72500E+05  6.25115E-09  3.483E-11  9.47483E-08  1.382E-10  1.30740E-09  1.580E-11
   1.32150E+06  5.82779E-09  3.355E-11  6.89033E-08  1.169E-10  1.53505E-09  1.712E-11
   1.67050E+06  5.58161E-09  3.282E-11  5.36203E-08  1.026E-10  1.72770E-09  1.816E-11
   2.01950E+06  5.43319E-09  3.235E-11  4.34704E-08  9.215E-11  1.84685E-09  1.878E-11
   2.36850E+06  5.28873E-09  3.189E-11  3.63186E-08  8.405E-11  1.92832E-09  1.919E-11
   2.71750E+06  5.15435E-09  3.147E-11  3.10726E-08  7.762E-11  2.01127E-09  1.959E-11
   3.06650E+06  5.05836E-09  3.115E-11  2.69569E-08  7.222E-11  2.06433E-09  1.985E-11
   3.41550E+06  4.96633E-09  3.086E-11  2.36883E-08  6.762E-11  2.11657E-09  2.010E-11
   3.76450E+06  4.88873E-09  3.061E-11  2.10566E-08  6.369E-11  2.12502E-09  2.014E-11
   4.11350E+06  4.77383E-09  3.023E-11  1.89192E-08  6.034E-11  2.14331E-09  2.023E-11
   4.46250E+06  4.71404E-09  3.004E-11  1.69752E-08  5.713E-11  2.13849E-09  2.020E-11
   4.81150E+06  4.62502E-09  2.975E-11  1.55405E-08  5.463E-11  2.12818E-09  2.016E-11
   5.16050E+06  4.56619E-09  2.955E-11  1.41102E-08  5.203E-11  2.15368E-09  2.028E-11
   5.50950E+06  4.50201E-09  2.934E-11  1.30065E-08  4.995E-11  2.12221E-09  2.013E-11
   5.85850E+06  4.41466E-09  2.905E-11  1.20101E-08  4.799E-11  2.12856E-09  2.016E-11
   6.20750E+06  4.35721E-09  2.886E-11  1.11498E-08  4.623E-11  2.10110E-09  2.003E-11
   6.55650E+06  4.29293E-09  2.864E-11  1.03274E-08  4.447E-11  2.07149E-09  1.989E-11
   6.90550E+06  4.21323E-09  2.838E-11  9.65229E-09  4.299E-11  2.04599E-09  1.976E-11
   7.25450E+06  4.15654E-09  2.818E-11  8.97483E-09  4.144E-11  2.01051E-09  1.959E-11
   7.60350E+06  4.09093E-09  2.796E-11  8.43324E-09  4.016E-11  1.98730E-09  1.948E-11
   7.95250E+06  4.02063E-09  2.771E-11  7.92330E-09  3.893E-11  1.96681E-09  1.938E-11
   8.30150E+06  3.95425E-09  2.748E-11  7.43524E-09  3.770E-11  1.93219E-09  1.921E-11
   8.65050E+06  3.86987E-09  2.718E-11  7.02560E-09  3.664E-11  1.90669E-09  1.908E-11
   8.99950E+06  3.83477E-09  2.706E-11  6.68147E-09  3.574E-11  1.86915E-09  1.889E-11
   9.34850E+06  3.77569E-09  2.685E-11  6.34131E-09  3.481E-11  1.82560E-09  1.867E-11
   9.69750E+06  3.70134E-09  2.658E-11  6.03204E-09  3.395E-11  1.79417E-09  1.851E-11
   1.00465E+07  3.62287E-09  2.630E-11  5.70649E-09  3.302E-11  1.77622E-09  1.841E-11
   1.03955E+07  3.57603E-09  2.613E-11  5.43434E-09  3.222E-11  1.73419E-09  1.820E-11
   1.07445E+07  3.51299E-09  2.590E-11  5.15301E-09  3.137E-11  1.70392E-09  1.804E-11
   1.10935E+07  3.44819E-09  2.565E-11  4.94814E-09  3.074E-11  1.66810E-09  1.785E-11
   1.14425E+07  3.38639E-09  2.542E-11  4.71132E-09  2.999E-11  1.62655E-09  1.762E-11
   1.17915E+07  3.32216E-09  2.518E-11  4.51070E-09  2.935E-11  1.60401E-09  1.750E-11
   1.21405E+07  3.28161E-09  2.502E-11  4.35602E-09  2.884E-11  1.56901E-09  1.731E-11
   1.24895E+07  3.22278E-09  2.480E-11  4.19546E-09  2.830E-11  1.53252E-09  1.711E-11
   1.28385E+07  3.20201E-09  2.472E-11  3.99828E-09  2.763E-11  1.47617E-09  1.679E-11
   1.31875E+07  3.12402E-09  2.442E-11  3.87483E-09  2.719E-11  1.46834E-09  1.674E-11
   1.35365E+07  3.05788E-09  2.416E-11  3.74274E-09  2.672E-11  1.41777E-09  1.645E-11
   1.38855E+07  3.00392E-09  2.394E-11  3.62746E-09  2.631E-11  1.39857E-09  1.634E-11
   1.42345E+07  2.94389E-09  2.370E-11  3.47999E-09  2.577E-11  1.34398E-09  1.602E-11
   1.45835E+07  2.91122E-09  2.357E-11  3.35659E-09  2.531E-11  1.32058E-09  1.588E-11
   1.49325E+07  2.85664E-09  2.335E-11  3.22030E-09  2.479E-11  1.28185E-09  1.564E-11
   1.52815E+07  2.80411E-09  2.313E-11  3.15353E-09  2.453E-11  1.25611E-09  1.549E-11
   1.56305E+07  2.77168E-09  2.300E-11  3.04933E-09  2.412E-11  1.21571E-09  1.524E-11
   1.59795E+07  2.72517E-09  2.281E-11  2.97994E-09  2.385E-11  1.18052E-09  1.501E-11
   1.63285E+07  2.64475E-09  2.247E-11  2.87173E-09  2.341E-11  1.15864E-09  1.487E-11
   1.66775E+07  2.61299E-09  2.233E-11  2.79699E-09  2.310E-11  1.11385E-09  1.458E-11
   1.70265E+07  2.54403E-09  2.203E-11  2.75778E-09  2.294E-11  1.09217E-09  1.444E-11
   1.73755E+07  2.50893E-09  2.188E-11  2.65325E-09  2.250E-11  1.04212E-09  1.411E-11
   1.77245E+07  2.45788E-09  2.166E-11  2.58477E-09  2.221E-11  1.00860E-09  1.388E-11
   1.80735E+07  2.40936E-09  2.144E-11  2.51404E-09  2.190E-11  9.86294E-10  1.372E-11
   1.84225E+07  2.35372E-09  2.120E-11  2.45525E-09  2.165E-11  9.34957E-10  1.336E-11
   1.87715E+07  2.31461E-09  2.102E-11  2.41800E-09  2.148E-11  8.99379E-10  1.311E-11
   1.91205E+07  2.26070E-09  2.077E-11  2.35053E-09  2.118E-11  8.74833E-10  1.293E-11
   1.94695E+07  2.23190E-09  2.064E-11  2.30683E-09  2.098E-11  8.48376E-10  1.273E-11
   1.98185E+07  2.16729E-09  2.034E-11  2.26246E-09  2.078E-11  8.00573E-10  1.236E-11
   2.01675E+07  2.11991E-09  2.012E-11  2.21261E-09  2.055E-11  7.67144E-10  1.210E-11
   2.05165E+07  2.05936E-09  1.983E-11  2.15478E-09  2.028E-11  7.43362E-10  1.191E-11
   2.08655E+07  2.01934E-09  1.963E-11  2.13372E-09  2.018E-11  7.09694E-10  1.164E-11
   2.12145E+07  1.97426E-09  1.941E-11  2.10649E-09  2.005E-11  6.62560E-10  1.125E-11
   2.15635E+07  1.91585E-09  1.912E-11  2.06309E-09  1.984E-11  6.31328E-10  1.098E-11
   2.19125E+07  1.87641E-09  1.893E-11  2.02813E-09  1.968E-11  6.00191E-10  1.071E-11
   2.22615E+07  1.81060E-09  1.859E-11  1.99895E-09  1.953E-11  5.75549E-10  1.048E-11
   2.26105E+07  1.78085E-09  1.844E-11  1.96418E-09  1.936E-11  5.36915E-10  1.013E-11
   2.29595E+07  1.71423E-09  1.809E-11  1.95821E-09  1.933E-11  5.05014E-10  9.821E-12
   2.33085E+07  1.66944E-09  1.785E-11  1.90435E-09  1.907E-11  4.67049E-10  9.445E-12
   2.36575E+07  1.61289E-09  1.755E-11  1.91275E-09  1.911E-11  4.33572E-10  9.100E-12
   2.40065E+07  1.56342E-09  1.728E-11  1.85936E-09  1.884E-11  3.98615E-10  8.725E-12
   2.43555E+07  1.51743E-09  1.702E-11  1.85043E-09  1.879E-11  3.64040E-10  8.339E-12
   2.47045E+07  1.47837E-09  1.680E-11  1.83381E-09  1.871E-11  3.28415E-10  7.920E-12
   2.50535E+07  1.42168E-09  1.648E-11  1.80883E-09  1.858E-11  3.05014E-10  7.633E-12
   2.54025E+07  1.36399E-09  1.614E-11  1.80764E-09  1.858E-11  2.61605E-10  7.069E-12
   2.57515E+07  1.31643E-09  1.585E-11  1.79690E-09  1.852E-11  2.31471E-10  6.649E-12
   2.61005E+07  1.25110E-09  1.546E-11  1.77708E-09  1.842E-11  1.98233E-10  6.153E-12
   2.64495E+07  1.19169E-09  1.508E-11  1.76337E-09  1.835E-11  1.65616E-10  5.624E-12
   2.67985E+07  1.14112E-09  1.476E-11  1.73462E-09  1.820E-11  1.35960E-10  5.096E-12
   2.71475E+07  1.06404E-09  1.425E-11  1.73534E-09  1.820E-11  1.08309E-10  4.548E-12
   2.74965E+07  1.00669E-09  1.386E-11  1.71996E-09  1.812E-11  7.99427E-11  3.908E-12
   2.78455E+07  9.17192E-10  1.323E-11  1.74336E-09  1.824E-11  5.74021E-11  3.311E-12
   2.81945E+07  8.55731E-10  1.278E-11  1.70645E-09  1.805E-11  3.00382E-11  2.395E-12
   2.85435E+07  7.57211E-10  1.203E-11  1.69169E-09  1.797E-11  1.29417E-11  1.572E-12
   2.88925E+07  6.44460E-10  1.109E-11  1.68672E-09  1.794E-11  2.10124E-12  6.335E-13
   2.92415E+07  4.96991E-10  9.743E-12  1.71590E-09  1.810E-11  0.00000E+00  0.000E+00
   2.95905E+07  2.19389E-10  6.473E-12  1.71012E-09  1.807E-11  0.00000E+00  0.000E+00
   2.99395E+07  4.77555E-14  9.551E-14  1.71838E-06  3.625E-10  0.00000E+00  0.000E+00
   3.02885E+07  0.00000E+00  0.000E+00  0.00000E+00  0.000E+00  0.00000E+00  0.000E+00
   3.06375E+07  0.00000E+00  0.000E+00  0.00000E+00  0.000E+00  0.00000E+00  0.000E+00
   3.09865E+07  0.00000E+00  0.000E+00  0.00000E+00  0.000E+00  0.00000E+00  0.000E+00
   3.13355E+07  0.00000E+00  0.000E+00  0.00000E+00  0.000E+00  0.00000E+00  0.000E+00
   3.16845E+07  0.00000E+00  0.000E+00  0.00000E+00  0.000E+00  0.00000E+00  0.000E+00
   3.20335E+07  0.00000E+00  0.000E+00  0.00000E+00  0.000E+00  0.00000E+00  0.000E+00
   3.23825E+07  0.00000E+00  0.000E+00  0.00000E+00  0.000E+00  0.00000E+00  0.000E+00
   3.27315E+07  0.00000E+00  0.000E+00  0.00000E+00  0.000E+00  0.00000E+00  0.000E+00
   3.30805E+07  0.00000E+00  0.000E+00  0.00000E+00  0.000E+00  0.00000E+00  0.000E+00
   3.34295E+07  0.00000E+00  0.000E+00  0.00000E+00  0.000E+00  0.00000E+00  0.000E+00
   3.37785E+07  0.00000E+00  0.000E+00  0.00000E+00  0.000E+00  0.00000E+00  0.000E+00
   3.41275E+07  0.00000E+00  0.000E+00  0.00000E+00  0.000E+00  0.00000E+00  0.000E+00
   3.44765E+07  0.00000E+00  0.000E+00  0.00000E+00  0.000E+00  0.00000E+00  0.000E+00
   3.48255E+07  0.00000E+00  0.000E+00  0.00000E+00  0.000E+00  0.00000E+00  0.000E+00
